* Measurement data measured by REW V5.20.13
* Source: Frequency Response Averaged data
* Format: Averaged data produced from the rms magnitudes of Sony MDR7506 L, Sony MDR7506 L, Sony MDR7506 L
* Dated: Feb 22, 2024 5:58:33 PM
* REW Settings:
*  C-weighting compensation: Off
*  Target level: 75.0 dB
* Note: Averaged data produced from the rms magnitudes of Sony MDR7506 L, Sony MDR7506 L, Sony MDR7506 L
* Measurement: RMS Average L
* Smoothing: 1/12 octave
* Frequency Step: 1/48 octave
* Start Frequency: 20.000 Hz
*
* Freq(Hz)	SPL(dB)
20.000000	67.410
20.299999	67.691
20.600000	67.961
20.900000	68.220
21.200001	68.469
21.400000	68.631
21.799999	68.948
22.000000	69.105
22.400000	69.415
22.700001	69.647
23.000000	69.877
23.299999	70.104
23.600000	70.328
24.000000	70.620
24.299999	70.832
24.700001	71.107
25.000000	71.307
25.400000	71.564
25.799999	71.811
26.200001	72.047
26.500000	72.217
26.900000	72.435
27.200001	72.593
27.600000	72.799
28.000000	72.998
28.500000	73.239
29.000000	73.471
29.500000	73.695
30.000000	73.912
30.400000	74.081
30.700001	74.207
31.100000	74.372
31.500000	74.534
32.000000	74.732
32.500000	74.926
33.000000	75.113
33.500000	75.292
34.000000	75.463
34.500000	75.625
35.000000	75.782
35.500000	75.934
36.000000	76.083
36.500000	76.226
37.000000	76.360
37.500000	76.483
38.200001	76.637
38.700001	76.736
39.500000	76.883
40.000000	76.973
40.599998	77.083
41.200001	77.196
41.799999	77.307
42.500000	77.433
43.099998	77.535
43.700001	77.629
44.400002	77.728
45.000000	77.803
45.500000	77.857
46.200001	77.917
46.799999	77.955
47.500000	77.981
48.200001	77.989
48.700001	77.985
49.400002	77.970
50.000000	77.950
50.799999	77.918
51.500000	77.887
52.200001	77.853
53.000000	77.805
53.799999	77.744
54.500000	77.676
55.200001	77.597
56.000000	77.498
57.000000	77.373
58.000000	77.264
59.000000	77.181
60.000000	77.129
60.799999	77.107
61.500000	77.101
62.200001	77.103
63.000000	77.110
64.000000	77.120
65.000000	77.122
66.000000	77.107
67.000000	77.069
68.000000	77.007
69.000000	76.929
70.000000	76.842
71.000000	76.757
72.000000	76.675
73.000000	76.591
74.000000	76.494
75.000000	76.375
76.199997	76.197
77.500000	75.966
78.800003	75.719
80.000000	75.501
81.199997	75.310
82.500000	75.148
83.800003	75.038
85.000000	74.982
86.199997	74.970
87.500000	75.005
88.500000	75.061
90.000000	75.178
91.199997	75.288
92.500000	75.412
93.800003	75.533
95.000000	75.640
96.199997	75.739
97.500000	75.831
98.800003	75.900
100.000000	75.938
101.500000	75.941
103.000000	75.890
104.400002	75.788
106.000000	75.606
107.500000	75.380
109.000000	75.123
110.599998	74.850
112.000000	74.643
113.800003	74.454
115.000000	74.380
117.199997	74.329
118.000000	74.327
120.599998	74.350
122.000000	74.367
124.099998	74.389
125.000000	74.396
126.500000	74.403
128.000000	74.402
131.500000	74.368
132.000000	74.360
134.000000	74.323
136.000000	74.280
138.000000	74.234
140.000000	74.187
143.000000	74.109
145.000000	74.048
147.500000	73.955
150.000000	73.842
152.500000	73.711
155.000000	73.567
157.500000	73.415
160.000000	73.252
162.500000	73.076
165.000000	72.889
167.500000	72.689
170.000000	72.476
172.500000	72.245
175.000000	71.996
177.500000	71.732
180.000000	71.457
182.500000	71.179
185.000000	70.906
187.500000	70.641
190.000000	70.386
192.500000	70.138
195.000000	69.894
197.500000	69.651
200.000000	69.406
203.000000	69.114
206.000000	68.830
209.000000	68.567
212.000000	68.339
214.000000	68.215
218.000000	68.051
220.000000	68.014
224.000000	68.031
227.000000	68.110
230.000000	68.233
233.000000	68.388
236.000000	68.568
240.000000	68.843
243.000000	69.072
247.000000	69.397
250.000000	69.645
254.000000	69.963
258.000000	70.251
262.000000	70.501
265.000000	70.661
269.000000	70.841
272.000000	70.954
276.000000	71.079
280.000000	71.181
285.000000	71.285
290.000000	71.371
295.000000	71.445
300.000000	71.516
304.000000	71.573
307.000000	71.616
311.000000	71.676
315.000000	71.737
320.000000	71.816
325.000000	71.897
330.000000	71.976
335.000000	72.054
340.000000	72.129
345.000000	72.201
350.000000	72.270
355.000000	72.334
360.000000	72.393
365.000000	72.447
370.000000	72.496
375.000000	72.540
382.000000	72.594
387.000000	72.627
395.000000	72.673
400.000000	72.698
406.000000	72.725
412.000000	72.750
418.000000	72.773
425.000000	72.798
431.000000	72.818
437.000000	72.836
444.000000	72.857
450.000000	72.874
455.000000	72.887
462.000000	72.903
468.000000	72.916
475.000000	72.929
482.000000	72.940
487.000000	72.947
494.000000	72.953
500.000000	72.957
508.000000	72.958
515.000000	72.956
522.000000	72.953
530.000000	72.950
538.000000	72.951
545.000000	72.956
552.000000	72.963
560.000000	72.973
570.000000	72.985
580.000000	72.993
590.000000	72.998
600.000000	73.003
608.000000	73.007
615.000000	73.013
622.000000	73.020
630.000000	73.032
640.000000	73.049
650.000000	73.070
660.000000	73.091
670.000000	73.113
680.000000	73.134
690.000000	73.154
700.000000	73.170
710.000000	73.182
720.000000	73.187
730.000000	73.186
740.000000	73.176
750.000000	73.156
762.000000	73.119
775.000000	73.064
788.000000	72.996
800.000000	72.928
812.000000	72.862
825.000000	72.800
838.000000	72.749
850.000000	72.708
862.000000	72.667
875.000000	72.619
885.000000	72.578
900.000000	72.514
912.000000	72.467
925.000000	72.431
938.000000	72.417
950.000000	72.425
962.000000	72.451
975.000000	72.493
988.000000	72.543
1000.000000	72.590
1015.000000	72.647
1030.000000	72.700
1044.000000	72.747
1060.000000	72.799
1075.000000	72.848
1090.000000	72.901
1106.000000	72.961
1120.000000	73.020
1138.000000	73.105
1150.000000	73.170
1172.000000	73.310
1180.000000	73.369
1206.000000	73.579
1220.000000	73.695
1241.000000	73.848
1250.000000	73.899
1265.000000	73.962
1280.000000	74.000
1315.000000	74.035
1320.000000	74.038
1340.000000	74.055
1360.000000	74.086
1380.000000	74.137
1400.000000	74.211
1430.000000	74.369
1450.000000	74.505
1475.000000	74.700
1500.000000	74.911
1525.000000	75.127
1550.000000	75.339
1575.000000	75.543
1600.000000	75.738
1625.000000	75.923
1650.000000	76.100
1675.000000	76.271
1700.000000	76.438
1725.000000	76.603
1750.000000	76.769
1775.000000	76.938
1800.000000	77.112
1825.000000	77.291
1850.000000	77.478
1875.000000	77.674
1900.000000	77.880
1925.000000	78.098
1950.000000	78.331
1975.000000	78.582
2000.000000	78.853
2030.000000	79.206
2060.000000	79.582
2090.000000	79.968
2120.000000	80.350
2140.000000	80.596
2180.000000	81.059
2200.000000	81.281
2240.000000	81.720
2270.000000	82.056
2300.000000	82.399
2330.000000	82.750
2360.000000	83.110
2400.000000	83.610
2430.000000	84.001
2470.000000	84.544
2500.000000	84.963
2540.000000	85.529
2580.000000	86.097
2620.000000	86.661
2650.000000	87.079
2690.000000	87.625
2720.000000	88.025
2760.000000	88.543
2800.000000	89.039
2850.000000	89.620
2900.000000	90.148
2950.000000	90.613
3000.000000	90.998
3040.000000	91.237
3070.000000	91.368
3110.000000	91.474
3150.000000	91.504
3200.000000	91.456
3250.000000	91.357
3300.000000	91.233
3350.000000	91.066
3400.000000	90.824
3450.000000	90.488
3500.000000	90.061
3550.000000	89.561
3600.000000	89.014
3650.000000	88.448
3700.000000	87.895
3750.000000	87.389
3820.000000	86.818
3870.000000	86.542
3950.000000	86.352
4000.000000	86.379
4060.000000	86.525
4120.000000	86.753
4180.000000	87.017
4250.000000	87.307
4310.000000	87.493
4370.000000	87.588
4440.000000	87.557
4500.000000	87.407
4550.000000	87.201
4620.000000	86.815
4680.000000	86.417
4750.000000	85.904
4820.000000	85.365
4870.000000	84.978
4940.000000	84.446
5000.000000	84.010
5080.000000	83.475
5150.000000	83.060
5220.000000	82.706
5300.000000	82.385
5380.000000	82.162
5450.000000	82.047
5520.000000	82.000
5600.000000	82.013
5700.000000	82.098
5800.000000	82.223
5900.000000	82.357
6000.000000	82.481
6080.000000	82.561
6150.000000	82.610
6220.000000	82.635
6300.000000	82.630
6400.000000	82.570
6500.000000	82.453
6600.000000	82.289
6700.000000	82.087
6800.000000	81.855
6900.000000	81.593
7000.000000	81.303
7100.000000	80.986
7200.000000	80.651
7300.000000	80.314
7400.000000	79.999
7500.000000	79.726
7620.000000	79.479
7750.000000	79.321
7880.000000	79.275
8000.000000	79.341
8120.000000	79.533
8250.000000	79.920
8380.000000	80.491
8500.000000	81.115
8620.000000	81.723
8750.000000	82.240
8850.000000	82.470
9000.000000	82.469
9120.000000	82.146
9250.000000	81.481
9380.000000	80.523
9500.000000	79.423
9620.000000	78.167
9750.000000	76.698
9880.000000	75.214
10000.000000	73.957
10150.000000	72.802
10300.000000	72.444
10440.000000	72.911
10600.000000	74.012
10750.000000	75.103
10900.000000	75.940
11060.000000	76.413
11200.000000	76.450
11380.000000	76.024
11500.000000	75.492
11720.000000	74.180
11800.000000	73.655
12060.000000	72.127
12200.000000	71.589
12410.000000	71.232
12500.000000	71.194
12650.000000	71.174
12800.000000	71.101
13150.000000	70.298
13200.000000	70.093
13400.000000	69.048
13600.000000	67.677
13800.000000	66.062
14000.000000	64.312
14300.000000	61.749
14500.000000	60.281
14750.000000	58.893
15000.000000	58.119
15250.000000	57.918
15500.000000	58.004
15750.000000	58.168
16000.000000	58.475
16250.000000	59.057
16500.000000	59.856
16750.000000	60.649
17000.000000	61.222
17250.000000	61.471
17500.000000	61.405
17750.000000	61.124
18000.000000	60.784
18250.000000	60.531
18500.000000	60.433
18750.000000	60.464
19000.000000	60.544
19250.000000	60.598
19500.000000	60.589
19750.000000	60.533
