* Measurement data measured by REW V5.31.1
* Source: Frequency response averaged data
* Format: Averaged data produced from the rms magnitudes of L ZMF Atrium Closed, L ZMF Atrium Closed, L ZMF Atrium Closed
* Dated: Jun 30, 2024 12:10:57 PM
* REW Settings:
*  C-weighting compensation: Off
*  Target level: 75.0 dB
* Note: Averaged data produced from the rms magnitudes of L ZMF Atrium Closed, L ZMF Atrium Closed, L ZMF Atrium Closed
* Measurement: RMS Average 1
* Smoothing: 1/12 octave
* Frequency Step: 1/48 octave
* Start Frequency: 20.000 Hz
*
* Freq(Hz)	SPL(dB)
20.000000	79.812
20.299999	79.956
20.600000	80.088
20.900000	80.207
21.200001	80.313
21.400000	80.377
21.799999	80.495
22.000000	80.553
22.400000	80.670
22.700001	80.762
23.000000	80.857
23.299999	80.953
23.600000	81.051
24.000000	81.183
24.299999	81.284
24.700001	81.425
25.000000	81.533
25.400000	81.676
25.799999	81.813
26.200001	81.940
26.500000	82.028
26.900000	82.135
27.200001	82.210
27.600000	82.305
28.000000	82.395
28.500000	82.509
29.000000	82.631
29.500000	82.764
30.000000	82.898
30.400000	82.996
30.700001	83.061
31.100000	83.137
31.500000	83.204
32.000000	83.280
32.500000	83.355
33.000000	83.427
33.500000	83.496
34.000000	83.561
34.500000	83.620
35.000000	83.673
35.500000	83.723
36.000000	83.769
36.500000	83.812
37.000000	83.853
37.500000	83.890
38.200001	83.935
38.700001	83.959
39.500000	83.985
40.000000	83.994
40.599998	83.999
41.200001	84.000
41.799999	83.997
42.500000	83.989
43.099998	83.981
43.700001	83.977
44.400002	83.984
45.000000	84.005
45.500000	84.035
46.200001	84.091
46.799999	84.147
47.500000	84.211
48.200001	84.269
48.700001	84.305
49.400002	84.348
50.000000	84.378
50.799999	84.412
51.500000	84.439
52.200001	84.464
53.000000	84.492
53.799999	84.520
54.500000	84.544
55.200001	84.564
56.000000	84.579
57.000000	84.581
58.000000	84.573
59.000000	84.562
60.000000	84.550
60.799999	84.536
61.500000	84.511
62.200001	84.471
63.000000	84.407
64.000000	84.312
65.000000	84.219
66.000000	84.135
67.000000	84.056
68.000000	83.977
69.000000	83.897
70.000000	83.821
71.000000	83.756
72.000000	83.706
73.000000	83.667
74.000000	83.634
75.000000	83.602
76.199997	83.566
77.500000	83.540
78.800003	83.532
80.000000	83.540
81.199997	83.557
82.500000	83.581
83.800003	83.612
85.000000	83.647
86.199997	83.691
87.500000	83.743
88.500000	83.782
90.000000	83.829
91.199997	83.853
92.500000	83.863
93.800003	83.859
95.000000	83.845
96.199997	83.823
97.500000	83.793
98.800003	83.758
100.000000	83.722
101.500000	83.672
103.000000	83.619
104.400002	83.566
106.000000	83.501
107.500000	83.433
109.000000	83.361
110.599998	83.283
112.000000	83.217
113.800003	83.137
115.000000	83.088
117.199997	83.006
118.000000	82.977
120.599998	82.877
122.000000	82.819
124.099998	82.730
125.000000	82.692
126.500000	82.631
128.000000	82.570
131.500000	82.432
132.000000	82.414
134.000000	82.344
136.000000	82.276
138.000000	82.202
140.000000	82.121
143.000000	81.998
145.000000	81.924
147.500000	81.847
150.000000	81.782
152.500000	81.721
155.000000	81.655
157.500000	81.581
160.000000	81.500
162.500000	81.417
165.000000	81.336
167.500000	81.258
170.000000	81.183
172.500000	81.114
175.000000	81.049
177.500000	80.991
180.000000	80.940
182.500000	80.895
185.000000	80.856
187.500000	80.824
190.000000	80.800
192.500000	80.787
195.000000	80.788
197.500000	80.805
200.000000	80.834
203.000000	80.879
206.000000	80.930
209.000000	80.985
212.000000	81.046
214.000000	81.091
218.000000	81.192
220.000000	81.248
224.000000	81.370
227.000000	81.470
230.000000	81.577
233.000000	81.691
236.000000	81.809
240.000000	81.970
243.000000	82.092
247.000000	82.252
250.000000	82.368
254.000000	82.517
258.000000	82.659
262.000000	82.793
265.000000	82.890
269.000000	83.013
272.000000	83.100
276.000000	83.209
280.000000	83.307
285.000000	83.412
290.000000	83.497
295.000000	83.564
300.000000	83.614
304.000000	83.643
307.000000	83.658
311.000000	83.671
315.000000	83.674
320.000000	83.664
325.000000	83.640
330.000000	83.603
335.000000	83.554
340.000000	83.496
345.000000	83.429
350.000000	83.355
355.000000	83.273
360.000000	83.185
365.000000	83.091
370.000000	82.992
375.000000	82.887
382.000000	82.733
387.000000	82.617
395.000000	82.428
400.000000	82.310
406.000000	82.168
412.000000	82.025
418.000000	81.881
425.000000	81.713
431.000000	81.570
437.000000	81.429
444.000000	81.270
450.000000	81.140
455.000000	81.037
462.000000	80.903
468.000000	80.799
475.000000	80.692
482.000000	80.599
487.000000	80.539
494.000000	80.463
500.000000	80.404
508.000000	80.339
515.000000	80.300
522.000000	80.277
530.000000	80.262
538.000000	80.250
545.000000	80.237
552.000000	80.221
560.000000	80.202
570.000000	80.184
580.000000	80.175
590.000000	80.171
600.000000	80.165
608.000000	80.157
615.000000	80.150
622.000000	80.147
630.000000	80.153
640.000000	80.177
650.000000	80.217
660.000000	80.265
670.000000	80.320
680.000000	80.386
690.000000	80.462
700.000000	80.539
710.000000	80.613
720.000000	80.679
730.000000	80.737
740.000000	80.791
750.000000	80.843
762.000000	80.903
775.000000	80.961
788.000000	81.004
800.000000	81.023
812.000000	81.021
825.000000	80.998
838.000000	80.962
850.000000	80.932
862.000000	80.914
875.000000	80.912
885.000000	80.919
900.000000	80.936
912.000000	80.950
925.000000	80.959
938.000000	80.961
950.000000	80.955
962.000000	80.943
975.000000	80.923
988.000000	80.898
1000.000000	80.872
1015.000000	80.837
1030.000000	80.797
1044.000000	80.760
1060.000000	80.720
1075.000000	80.688
1090.000000	80.659
1106.000000	80.631
1120.000000	80.608
1138.000000	80.584
1150.000000	80.572
1172.000000	80.558
1180.000000	80.554
1206.000000	80.543
1220.000000	80.536
1241.000000	80.523
1250.000000	80.518
1265.000000	80.511
1280.000000	80.508
1315.000000	80.516
1320.000000	80.519
1340.000000	80.538
1360.000000	80.566
1380.000000	80.603
1400.000000	80.649
1430.000000	80.733
1450.000000	80.800
1475.000000	80.894
1500.000000	81.002
1525.000000	81.122
1550.000000	81.254
1575.000000	81.395
1600.000000	81.545
1625.000000	81.702
1650.000000	81.865
1675.000000	82.029
1700.000000	82.188
1725.000000	82.335
1750.000000	82.461
1775.000000	82.556
1800.000000	82.612
1825.000000	82.620
1850.000000	82.576
1875.000000	82.479
1900.000000	82.332
1925.000000	82.142
1950.000000	81.928
1975.000000	81.713
2000.000000	81.534
2030.000000	81.419
2060.000000	81.470
2090.000000	81.717
2120.000000	82.148
2140.000000	82.516
2180.000000	83.371
2200.000000	83.827
2240.000000	84.730
2270.000000	85.370
2300.000000	85.966
2330.000000	86.515
2360.000000	87.019
2400.000000	87.634
2430.000000	88.061
2470.000000	88.595
2500.000000	88.978
2540.000000	89.469
2580.000000	89.942
2620.000000	90.396
2650.000000	90.723
2690.000000	91.137
2720.000000	91.430
2760.000000	91.797
2800.000000	92.136
2850.000000	92.513
2900.000000	92.831
2950.000000	93.081
3000.000000	93.261
3040.000000	93.358
3070.000000	93.408
3110.000000	93.449
3150.000000	93.468
3200.000000	93.472
3250.000000	93.471
3300.000000	93.487
3350.000000	93.545
3400.000000	93.665
3450.000000	93.861
3500.000000	94.129
3550.000000	94.447
3600.000000	94.780
3650.000000	95.089
3700.000000	95.340
3750.000000	95.508
3820.000000	95.580
3870.000000	95.516
3950.000000	95.245
4000.000000	94.999
4060.000000	94.662
4120.000000	94.311
4180.000000	93.974
4250.000000	93.629
4310.000000	93.390
4370.000000	93.215
4440.000000	93.101
4500.000000	93.087
4550.000000	93.136
4620.000000	93.305
4680.000000	93.545
4750.000000	93.940
4820.000000	94.460
4870.000000	94.903
4940.000000	95.611
5000.000000	96.274
5080.000000	97.182
5150.000000	97.930
5220.000000	98.562
5300.000000	99.066
5380.000000	99.272
5450.000000	99.181
5520.000000	98.836
5600.000000	98.153
5700.000000	96.934
5800.000000	95.415
5900.000000	93.708
6000.000000	91.912
6080.000000	90.461
6150.000000	89.205
6220.000000	87.976
6300.000000	86.622
6400.000000	85.042
6500.000000	83.641
6600.000000	82.497
6700.000000	81.692
6800.000000	81.292
6900.000000	81.298
7000.000000	81.639
7100.000000	82.192
7200.000000	82.823
7300.000000	83.422
7400.000000	83.907
7500.000000	84.226
7620.000000	84.354
7750.000000	84.164
7880.000000	83.646
8000.000000	82.903
8120.000000	81.939
8250.000000	80.682
8380.000000	79.251
8500.000000	77.820
8620.000000	76.339
8750.000000	74.786
8850.000000	73.752
9000.000000	72.805
9120.000000	72.791
9250.000000	73.422
9380.000000	74.363
9500.000000	75.230
9620.000000	75.964
9750.000000	76.563
9880.000000	76.956
10000.000000	77.150
10150.000000	77.188
10300.000000	77.018
10440.000000	76.690
10600.000000	76.168
10750.000000	75.639
10900.000000	75.233
11060.000000	75.100
11200.000000	75.267
11380.000000	75.742
11500.000000	76.130
11720.000000	76.876
11800.000000	77.156
12060.000000	78.161
12200.000000	78.793
12410.000000	79.869
12500.000000	80.358
12650.000000	81.166
12800.000000	81.916
13150.000000	83.159
13200.000000	83.263
13400.000000	83.470
13600.000000	83.350
13800.000000	82.944
14000.000000	82.366
14300.000000	81.628
14500.000000	81.512
14750.000000	81.814
15000.000000	82.342
15250.000000	82.833
15500.000000	83.141
15750.000000	83.233
16000.000000	83.235
16250.000000	83.410
16500.000000	83.938
16750.000000	84.668
17000.000000	85.235
17250.000000	85.348
17500.000000	84.884
17750.000000	83.852
18000.000000	82.361
18250.000000	80.606
18500.000000	78.889
18750.000000	77.572
19000.000000	76.860
19250.000000	76.649
19500.000000	76.686
19750.000000	76.778
20000.000000	76.837
